[Header]
Data File Name	C:\Users\user\Documents\mp933\20230329_M1 to 12\M12_SCNN1000_rxi300rt5sr10_4.qgd
Output Date	3/30/2023
Output Time	12:26:16 PM

[MC Peak Table]
# of Peaks	165
Mass	TIC
Peak#	Ret.Time	Proc.From	Proc.To	Mass	Area	Height	A/H	Conc.	Mark	Name	Ret. Index	Area%	Height%	SI	CAS #
1	6.025	6.013	6.040	TIC	18756	18790	1.00	0.05	   	5-Aminobarbituric acid		0.05	0.28	71	118-78-5
2	7.347	7.300	7.560	TIC	2010102	544869	3.69	5.18	   	Furfural		5.18	8.17	97	98-1-1
3	8.527	8.493	8.647	TIC	147566	39393	3.75	0.38	   	2-Butanone		0.38	0.59	94	78-93-3
4	10.507	10.440	10.587	TIC	69223	18515	3.74	0.18	   	2-Cyclopenten-1-one, 2-methyl-		0.18	0.28	91	1120-73-6
5	10.697	10.587	10.827	TIC	426603	128994	3.31	1.10	 V 	Ethanone, 1-(2-furanyl)-		1.10	1.94	97	1192-62-7
6	11.007	10.960	11.033	TIC	26234	8810	2.98	0.07	   	Cyclopentane, 1,2,3,4,5-pentamethyl-		0.07	0.13	72	0-0-0
7	11.071	11.033	11.127	TIC	40376	12132	3.33	0.10	 V 	trans-2-Pentenoic acid		0.10	0.18	88	13991-37-2
8	11.486	11.413	11.613	TIC	441077	112797	3.91	1.14	   	2,5-Hexanedione		1.14	1.69	98	110-13-4
9	12.214	12.167	12.247	TIC	19522	7194	2.71	0.05	   	1-Hexene, 4,5-dimethyl-		0.05	0.11	76	16106-59-5
10	12.512	12.467	12.647	TIC	168763	46115	3.66	0.44	   	2(3H)-Furanone, dihydro-5-methyl-		0.44	0.69	95	108-29-2
11	12.869	12.807	12.960	TIC	986545	313823	3.14	2.54	   	2-Furancarboxaldehyde, 5-methyl-		2.54	4.71	97	620-2-0
12	13.006	12.960	13.133	TIC	102942	19997	5.15	0.27	 V 	2-Cyclopenten-1-one, 3-methyl-		0.27	0.30	93	2758-18-1
13	13.232	13.133	13.273	TIC	13151	5484	2.40	0.03	 V 	2,6-Heptanedione, 3-acetyl-		0.03	0.08	76	29214-57-1
14	13.427	13.380	13.467	TIC	15513	5674	2.73	0.04	   	2(5H)-Furanone, 3-methyl-		0.04	0.09	81	22122-36-7
15	13.687	13.620	13.767	TIC	200947	64421	3.12	0.52	   	Phenol		0.52	0.97	97	108-95-2
16	13.982	13.920	14.127	TIC	261700	60278	4.34	0.68	   	2-Hydroxy-gamma-butyrolactone		0.68	0.90	92	19444-84-9
17	15.273	15.180	15.433	TIC	1154004	306391	3.77	2.98	   	1,2-Cyclopentanedione, 3-methyl-		2.98	4.60	96	765-70-8
18	15.579	15.433	15.627	TIC	95613	22482	4.25	0.25	 V 	Cyclopentanone, 2-methyl-		0.25	0.34	83	1120-72-5
19	15.676	15.627	15.813	TIC	249822	56870	4.39	0.64	 V 	2-Acetyl-5-methylfuran		0.64	0.85	95	1193-79-9
20	16.053	16.027	16.120	TIC	5795	3451	1.68	0.01	   	Benzaldehyde, 2-hydroxy-		0.01	0.05	73	90-2-8
21	16.426	16.387	16.473	TIC	25359	9769	2.60	0.07	   	Phenol, 2-methyl-		0.07	0.15	88	95-48-7
22	17.336	16.527	17.353	TIC	15778979	706928	22.32	40.70	   	Pentanoic acid, 4-oxo-		40.70	10.60	94	123-76-2
23	17.404	17.353	17.667	TIC	2991977	770437	3.88	7.72	SV 	Pentanoic acid, 4-oxo-		7.72	11.56	97	123-76-2
24	17.473	17.460	17.533	TIC	4983	4230	1.18	0.01	T  	2-Furancarboxylic acid		0.01	0.06	80	88-14-2
25	17.633	17.540	17.667	TIC	21125	6859	3.08	0.05	T  	Ethanone, 1-(1-cyclohexen-1-yl)-		0.05	0.10	73	932-66-1
26	17.872	17.827	17.960	TIC	35466	10278	3.45	0.09	   	1,2-Cyclopentanedione, 3-methyl-		0.09	0.15	81	765-70-8
27	18.130	18.080	18.167	TIC	16606	6197	2.68	0.04	   	Cinnamaldehyde, (E)-		0.04	0.09	82	14371-10-9
28	18.330	18.167	18.387	TIC	154116	33379	4.62	0.40	 V 	Benzofuran, 2-methyl-		0.40	0.50	92	4265-25-2
29	18.435	18.387	18.560	TIC	158293	42465	3.73	0.41	SV 	4-Acetylbutyric acid		0.41	0.64	90	3128-6-1
30	18.634	18.587	18.720	TIC	49320	10746	4.59	0.13	   	2-Cyclopenten-1-one, 3-ethyl-2-hydroxy-		0.13	0.16	89	21835-1-8
31	18.767	18.720	18.800	TIC	19219	5812	3.31	0.05	 V 			0.05	0.09	0	0-0-0
32	18.845	18.800	18.887	TIC	21945	7918	2.77	0.06	 V 	1-(2,4-Dimethyl-furan-3-yl)-ethanone		0.06	0.12	83	32933-7-6
33	19.025	18.967	19.073	TIC	34752	10942	3.18	0.09	   	1-Propanone, 1-(5-methyl-2-furanyl)-		0.09	0.16	84	10599-69-6
35	19.733	19.667	19.807	TIC	52397	13128	3.99	0.14	   	4-Ketopimelic		0.14	0.20	78	502-50-1
36	20.129	20.073	20.193	TIC	48528	16670	2.91	0.13	   	Ethanone, 1-(2-hydroxyphenyl)-		0.13	0.25	74	118-93-4
37	20.258	20.193	20.320	TIC	35548	10956	3.24	0.09	   	2,3-Dihydroxybenzaldehyde		0.09	0.16	86	24677-78-9
38	20.340	20.327	20.493	TIC	9085	3197	2.84	0.02	   			0.02	0.05	0	0-0-0
39	20.531	20.493	20.567	TIC	17178	6357	2.70	0.04	 V 	Ethanone, 1-(2-methylphenyl)-		0.04	0.10	83	577-16-2
40	20.621	20.567	20.667	TIC	33796	12810	2.64	0.09	   	3-Methyl-1-dodecyn-3-ol		0.09	0.19	80	24424-78-0
41	20.999	20.927	21.093	TIC	101695	26343	3.86	0.26	   	5-(Hydroxymethyl)dihydrofuran-2(3H)-one		0.26	0.40	92	10374-51-3
42	21.173	21.093	21.193	TIC	22021	5909	3.73	0.06	 V 			0.06	0.09	0	0-0-0
43	21.293	21.193	21.340	TIC	33025	5644	5.85	0.09	 V 	Catechol		0.09	0.08	81	120-80-9
44	21.573	21.527	21.593	TIC	18416	5992	3.07	0.05	   			0.05	0.09	0	0-0-0
45	21.624	21.593	21.700	TIC	39915	12354	3.23	0.10	 V 	1H-Benzimidazole, 5,6-dimethyl-		0.10	0.19	86	582-60-5
46	21.822	21.753	21.887	TIC	284573	95180	2.99	0.73	   	Benzofuran, 4,7-dimethyl-		0.73	1.43	88	28715-26-6
47	22.070	22.007	22.127	TIC	50503	12537	4.03	0.13	   	Creosol		0.13	0.19	74	93-51-6
48	22.208	22.127	22.313	TIC	258517	68059	3.80	0.67	 V 	5-Hydroxymethylfurfural		0.67	1.02	95	67-47-0
49	22.540	22.447	22.580	TIC	56649	11734	4.83	0.15	   	Cyclopenten-4-one, 1,2,3,3-tetramethyl-		0.15	0.18	75	0-0-0
50	22.653	22.580	22.693	TIC	47637	10561	4.51	0.12	 V 	5-Octen-4-one, 7-methyl-		0.12	0.16	79	32064-78-1
51	22.743	22.693	22.807	TIC	69090	21825	3.17	0.18	 V 	3,4-dimethylfuran		0.18	0.33	83	0-0-0
52	23.207	23.160	23.407	TIC	57794	8154	7.09	0.15	   			0.15	0.12	0	0-0-0
53	23.466	23.407	23.533	TIC	49158	14666	3.35	0.13	   	4-Hexen-2-one, 3,4-dimethyl-		0.13	0.22	80	53252-21-4
54	23.618	23.533	23.827	TIC	687631	104999	6.55	1.77	 V 	Hydroquinone		1.77	1.58	95	123-31-9
55	23.883	23.827	23.940	TIC	70578	20726	3.41	0.18	 V 	1H-Inden-1-one, 2,3-dihydro-		0.18	0.31	93	83-33-0
56	24.021	23.940	24.073	TIC	107515	21230	5.06	0.28	 V 			0.28	0.32	0	0-0-0
57	24.147	24.073	24.187	TIC	49161	6646	7.40	0.13	 V 			0.13	0.10	0	0-0-0
58	24.260	24.187	24.307	TIC	22639	4795	4.72	0.06	 V 	5-Isopropyl-3,3-dimethyl-2-methylene-2,3-dihydrofuran		0.06	0.07	77	81250-44-4
59	24.597	24.553	24.633	TIC	18556	8421	2.20	0.05	   	4,6-Octadienoic acid, 2-acetyl-2-methyl-, ethyl ester		0.05	0.13	72	0-0-0
60	24.709	24.653	24.760	TIC	94562	28843	3.28	0.24	   	Benzaldehyde, 3-hydroxy-		0.24	0.43	96	100-83-4
61	24.892	24.760	24.927	TIC	153317	23407	6.55	0.40	 V 	2-Coumaranone		0.40	0.35	76	553-86-6
62	24.973	24.927	25.060	TIC	142353	35490	4.01	0.37	 V 	2-Hexenoic acid, 3,4,4-trimethyl-5-oxo-, (Z)-		0.37	0.53	81	14919-56-3
63	25.147	25.060	25.180	TIC	10759	3523	3.05	0.03	 V 			0.03	0.05	0	0-0-0
64	25.500	25.467	25.620	TIC	31436	5906	5.32	0.08	   			0.08	0.09	0	0-0-0
65	25.663	25.620	25.773	TIC	72419	12424	5.83	0.19	 V 	5-t-Butyl-cycloheptene		0.19	0.19	71	0-0-0
66	25.832	25.773	25.993	TIC	74421	8649	8.60	0.19	 V 			0.19	0.13	0	0-0-0
67	26.040	25.993	26.087	TIC	20014	5527	3.62	0.05	 V 	4-Hydroxy-1-indanone		0.05	0.08	76	40731-98-4
68	26.128	26.087	26.167	TIC	45453	12565	3.62	0.12	 V 			0.12	0.19	0	0-0-0
69	26.234	26.167	26.340	TIC	442159	137103	3.23	1.14	 V 	n-Caproic acid vinyl ester		1.14	2.06	84	3050-69-9
70	26.519	26.453	26.587	TIC	111273	32370	3.44	0.29	   	1-Propanone, 1-(2-furanyl)-		0.29	0.49	79	3194-15-8
71	26.630	26.587	26.687	TIC	36890	12108	3.05	0.10	 V 			0.10	0.18	0	0-0-0
72	26.951	26.887	27.080	TIC	85289	14856	5.74	0.22	   			0.22	0.22	0	0-0-0
73	27.164	27.080	27.267	TIC	355147	83370	4.26	0.92	   	Ethanone, 1-(3-hydroxyphenyl)-		0.92	1.25	92	121-71-1
74	27.313	27.267	27.347	TIC	63745	17403	3.66	0.16	 V 	6,6,7-Trimethyl-octane-2,5-dione		0.16	0.26	75	0-0-0
75	27.376	27.347	27.447	TIC	84006	23148	3.63	0.22	 V 			0.22	0.35	0	0-0-0
76	27.570	27.447	27.613	TIC	100898	20189	5.00	0.26	 V 			0.26	0.30	0	0-0-0
77	27.653	27.613	27.760	TIC	95241	22030	4.32	0.25	 V 			0.25	0.33	0	0-0-0
78	27.828	27.760	27.927	TIC	332337	90985	3.65	0.86	   	2-Methyl-5-hydroxybenzofuran		0.86	1.36	89	6769-56-8
79	28.022	27.927	28.080	TIC	104055	23459	4.44	0.27	 V 	2-Acetylbenzofuran		0.27	0.35	85	1646-26-0
80	28.245	28.193	28.293	TIC	39594	12059	3.28	0.10	   	Furan, 2,2'-methylenebis-		0.10	0.18	78	1197-40-6
81	28.366	28.293	28.400	TIC	42470	10322	4.11	0.11	 V 	Acetophenone, 4'-hydroxy-		0.11	0.15	89	99-93-4
82	28.508	28.400	28.567	TIC	34452	5491	6.27	0.09	 V 			0.09	0.08	0	0-0-0
83	28.693	28.567	28.747	TIC	47372	13553	3.50	0.12	 V 	Ethanone, 1,1'-(1,4-phenylene)bis-		0.12	0.20	87	1009-61-6
84	28.917	28.847	28.987	TIC	154782	38097	4.06	0.40	   			0.40	0.57	0	0-0-0
85	29.058	28.987	29.107	TIC	78633	19430	4.05	0.20	 V 	Ethanone, 1-(1-cyclohexen-1-yl)-		0.20	0.29	77	932-66-1
86	29.133	29.107	29.233	TIC	79997	11390	7.02	0.21	 V 			0.21	0.17	0	0-0-0
87	29.276	29.233	29.347	TIC	101650	26300	3.87	0.26	 V 			0.26	0.39	0	0-0-0
88	29.399	29.347	29.433	TIC	43486	11608	3.75	0.11	 V 			0.11	0.17	0	0-0-0
89	29.480	29.433	29.507	TIC	31463	7935	3.97	0.08	 V 	2-Isopropyl-5-methyl-6-oxabicyclo[3.1.0]hexane-1-carboxaldehyde		0.08	0.12	73	0-0-0
90	29.560	29.507	29.613	TIC	43648	12079	3.61	0.11	 V 	4-Hydroxy-2-methylacetophenone		0.11	0.18	82	875-59-2
91	29.682	29.613	29.713	TIC	129503	40245	3.22	0.33	 V 	1-Propanone, 1-(5-methyl-2-furanyl)-		0.33	0.60	78	10599-69-6
92	29.751	29.713	29.807	TIC	91468	29982	3.05	0.24	 V 	Furan, 2,5-dibutyl-		0.24	0.45	77	72636-53-4
93	29.979	29.940	30.027	TIC	17083	6704	2.55	0.04	   	5H-1-Pyrindine, 6,7-dihydro-4-amino-2,3-dimethyl-, hydrate		0.04	0.10	80	62732-46-1
94	30.080	30.027	30.107	TIC	43512	13167	3.30	0.11	 V 	Ethanone, 1-(2,5-dihydroxyphenyl)-		0.11	0.20	77	490-78-8
95	30.131	30.107	30.180	TIC	52763	16855	3.13	0.14	 V 	7a-Methyl-3-methylenehexahydrobenzofuran-2-one		0.14	0.25	76	67498-53-7
96	30.220	30.180	30.253	TIC	12195	3462	3.52	0.03	 V 	4-Hydroxy-3-methylacetophenone		0.03	0.05	73	876-2-8
97	30.547	30.507	30.660	TIC	53744	5935	9.06	0.14	   			0.14	0.09	0	0-0-0
98	30.724	30.660	30.807	TIC	131396	27985	4.70	0.34	 V 			0.34	0.42	0	0-0-0
99	30.892	30.807	30.940	TIC	111126	20824	5.34	0.29	 V 			0.29	0.31	0	0-0-0
100	30.993	30.940	31.020	TIC	75653	18585	4.07	0.20	 V 			0.20	0.28	0	0-0-0
101	31.138	31.020	31.220	TIC	476317	110507	4.31	1.23	 V 	Furan, 2,2'-methylenebis[5-methyl-		1.23	1.66	81	13679-43-1
102	31.279	31.220	31.327	TIC	177108	46818	3.78	0.46	 V 	1-Naphthalenol, 4-methoxy-		0.46	0.70	87	84-85-5
103	31.368	31.327	31.447	TIC	93054	27437	3.39	0.24	 V 	Furan, 2-(2-furanylmethyl)-5-methyl-		0.24	0.41	84	13678-51-8
104	31.487	31.447	31.507	TIC	6766	3469	1.95	0.02	   			0.02	0.05	0	0-0-0
105	31.680	31.660	31.787	TIC	46967	4615	10.18	0.12	   			0.12	0.07	0	0-0-0
106	31.878	31.787	31.973	TIC	199131	36699	5.43	0.51	 V 	Indene-1,7(4H)-dione, 3a,7a-dihydro-5-methyl-		0.51	0.55	72	21149-14-4
107	32.033	31.993	32.080	TIC	26879	8155	3.30	0.07	   			0.07	0.12	0	0-0-0
108	32.125	32.080	32.180	TIC	114916	36699	3.13	0.30	 V 	Bicyclo[2.2.2]oct-5-ene, 2-methoxymethylene-		0.30	0.55	80	0-0-0
109	32.446	32.393	32.487	TIC	30310	8697	3.49	0.08	   			0.08	0.13	0	0-0-0
110	32.595	32.487	32.693	TIC	186090	29287	6.35	0.48	 V 	1,6-Pentalenedione, hexahydro-6a-(2-propynyl)-, cis-		0.48	0.44	75	92485-87-5
111	32.773	32.693	32.853	TIC	69124	13907	4.97	0.18	 V 			0.18	0.21	0	0-0-0
112	32.926	32.853	32.980	TIC	87624	23960	3.66	0.23	   	Hydrocoumarin		0.23	0.36	81	119-84-6
113	33.020	32.980	33.073	TIC	31462	9703	3.24	0.08	 V 			0.08	0.15	0	0-0-0
114	33.340	33.313	33.413	TIC	23793	5698	4.18	0.06	   			0.06	0.09	0	0-0-0
116	33.669	33.620	33.733	TIC	72574	23113	3.14	0.19	   			0.19	0.35	0	0-0-0
117	34.053	33.980	34.167	TIC	314266	86379	3.64	0.81	   	3,3-Dimethyl-hepta-4,5-dien-2-one		0.81	1.30	72	0-0-0
118	34.387	34.347	34.433	TIC	45695	10940	4.18	0.12	   			0.12	0.16	0	0-0-0
119	34.464	34.433	34.540	TIC	49890	15392	3.24	0.13	 V 			0.13	0.23	0	0-0-0
120	34.684	34.593	34.767	TIC	131372	29493	4.45	0.34	   	1,4,5,7-Tetramethyl-furo[3,4-d]pyridazine		0.34	0.44	75	0-0-0
121	34.960	34.907	35.027	TIC	44780	8743	5.12	0.12	   	.alpha.-Furil		0.12	0.13	73	492-94-4
122	35.100	35.027	35.240	TIC	776555	209058	3.71	2.00	 V 	2,3-Epoxypropyl 3,5-xylyl ether		2.00	3.14	74	4287-30-3
123	35.329	35.240	35.407	TIC	68609	13006	5.28	0.18	 V 	1(2H)-Naphthalenone, 3,4-dihydro-5-methoxy-8-methyl-		0.18	0.20	71	53863-68-6
124	35.671	35.607	35.700	TIC	46549	13168	3.54	0.12	   			0.12	0.20	0	0-0-0
125	35.736	35.700	35.813	TIC	58226	13539	4.30	0.15	 V 			0.15	0.20	0	0-0-0
126	35.904	35.813	35.973	TIC	43029	10156	4.24	0.11	   			0.11	0.15	0	0-0-0
127	36.053	35.993	36.120	TIC	108521	26464	4.10	0.28	   	2H-1,5-Benzodioxepin, 3,4-dihydro-3-methylene-		0.28	0.40	71	19560-64-6
128	36.153	36.120	36.187	TIC	24853	8826	2.82	0.06	 V 	3-[3,4-methylenedioxyphenyl]-3-buten-2-one		0.06	0.13	70	0-0-0
129	36.454	36.373	36.553	TIC	252317	71402	3.53	0.65	   	Pyrazol-5(4H)-one, 3-(4-methoxyphenyl)-		0.65	1.07	80	1578-89-8
130	36.636	36.553	36.760	TIC	596680	151097	3.95	1.54	   	2H-1-benzopyran-2-one, 3,4-dihydro-6-hydroxy-5,7-dimethyl-		1.54	2.27	79	0-0-0
131	36.807	36.760	36.873	TIC	46534	10761	4.32	0.12	 V 			0.12	0.16	0	0-0-0
132	37.034	36.980	37.120	TIC	35048	9379	3.74	0.09	   			0.09	0.14	0	0-0-0
133	37.380	37.320	37.407	TIC	36553	10398	3.52	0.09	   			0.09	0.16	0	0-0-0
134	37.466	37.407	37.593	TIC	417349	109285	3.82	1.08	 V 	p-Hexyloxyphenyl trans-4-butylcyclohexanecarboxylate		1.08	1.64	74	67589-50-8
135	37.693	37.613	37.767	TIC	411235	108605	3.79	1.06	   	Acetic acid, 3-cyclohex-1-enyl-1-methylprop-2-ynyl ester		1.06	1.63	72	162518-99-2
136	37.809	37.767	37.893	TIC	97117	27118	3.58	0.25	 V 	1-Cyclododecanone, 2-ethylidene		0.25	0.41	71	1138-1-8
137	38.108	38.033	38.227	TIC	97580	16155	6.04	0.25	   	Pentacyclo[8.4.0.0(3,7).0(4,14).0(6,11)]tetradecane		0.25	0.24	72	0-0-0
138	39.028	38.960	39.073	TIC	51962	13666	3.80	0.13	   			0.13	0.21	0	0-0-0
139	39.147	39.073	39.173	TIC	29331	5204	5.64	0.08	 V 			0.08	0.08	0	0-0-0
140	39.541	39.507	39.613	TIC	30270	10264	2.95	0.08	   			0.08	0.15	0	0-0-0
141	39.824	39.767	39.867	TIC	17566	5220	3.37	0.05	   			0.05	0.08	0	0-0-0
142	40.441	40.367	40.527	TIC	223545	62946	3.55	0.58	   	n-Hexadecanoic acid		0.58	0.94	91	57-10-3
143	40.791	40.727	40.860	TIC	119792	33509	3.57	0.31	   			0.31	0.50	0	0-0-0
144	40.933	40.860	40.953	TIC	18481	3184	5.80	0.05	 V 			0.05	0.05	0	0-0-0
145	41.893	41.833	41.967	TIC	41394	8080	5.12	0.11	   			0.11	0.12	0	0-0-0
146	41.998	41.967	42.060	TIC	46584	15104	3.08	0.12	 V 			0.12	0.23	0	0-0-0
147	42.620	42.600	42.653	TIC	13410	4412	3.04	0.03	   			0.03	0.07	0	0-0-0
148	42.674	42.653	42.707	TIC	17831	8094	2.20	0.05	 V 			0.05	0.12	0	0-0-0
149	42.818	42.707	42.893	TIC	46701	10062	4.64	0.12	 V 			0.12	0.15	0	0-0-0
150	42.956	42.893	43.020	TIC	39325	11538	3.41	0.10	 V 			0.10	0.17	0	0-0-0
151	43.672	43.620	43.720	TIC	43945	14994	2.93	0.11	   			0.11	0.22	0	0-0-0
152	43.909	43.820	43.960	TIC	40294	8319	4.84	0.10	   	Hexanoic acid, 4-tetradecyl ester		0.10	0.12	77	0-0-0
153	44.267	44.220	44.307	TIC	11791	4305	2.74	0.03	   			0.03	0.06	0	0-0-0
154	44.361	44.307	44.433	TIC	132040	39027	3.38	0.34	 V 	Octadecanoic acid		0.34	0.59	88	57-11-4
155	45.392	45.333	45.467	TIC	43284	11601	3.73	0.11	   			0.11	0.17	0	0-0-0
156	45.795	45.767	45.887	TIC	27288	5640	4.84	0.07	   			0.07	0.08	0	0-0-0
157	46.436	46.360	46.480	TIC	33858	8270	4.09	0.09	   			0.09	0.12	0	0-0-0
158	47.254	47.080	47.300	TIC	38484	5101	7.54	0.10	   			0.10	0.08	0	0-0-0
159	50.653	50.627	50.693	TIC	8141	3420	2.38	0.02	   			0.02	0.05	0	0-0-0
160	50.734	50.693	50.793	TIC	32529	10009	3.25	0.08	 V 			0.08	0.15	0	0-0-0
161	53.880	53.867	53.980	TIC	12251	2945	4.16	0.03	   			0.03	0.04	0	0-0-0
162	54.017	53.980	54.067	TIC	21924	7131	3.07	0.06	 V 	1,3-Benzenedicarboxylic acid, bis(2-ethylhexyl) ester		0.06	0.11	77	137-89-3
163	60.040	60.027	60.100	TIC	8409	3201	2.63	0.02	   			0.02	0.05	0	0-0-0
164	60.507	60.393	60.520	TIC	69712	17310	4.03	0.18	   			0.18	0.26	0	0-0-0
165	60.547	60.520	60.693	TIC	123129	20938	5.88	0.32	 V 			0.32	0.31	0	0-0-0

