[Header]
Data File Name	C:\Users\user\Documents\jla278\June 1st 2023\CLS_SCNN_1000_2.qgd
Output Date	6/2/2023
Output Time	2:35:45 PM

[MC Peak Table]
# of Peaks	199
Mass	TIC
Peak#	Ret.Time	Proc.From	Proc.To	Mass	Area	Height	A/H	Conc.	Mark	Name	Ret. Index	Area%	Height%	SI	CAS #
1	7.319	7.267	7.500	TIC	2200244	591034	3.72	4.56	   	3-Furaldehyde		4.56	7.32	96	498-60-2
2	8.502	8.453	8.653	TIC	181021	44551	4.06	0.38	   	2-Butanone		0.38	0.55	93	78-93-3
3	10.474	10.413	10.553	TIC	64531	19823	3.26	0.13	   	2-Cyclopenten-1-one, 2-methyl-		0.13	0.25	89	1120-73-6
4	10.667	10.553	10.793	TIC	462100	144085	3.21	0.96	 V 	Ethanone, 1-(2-furanyl)-		0.96	1.78	97	1192-62-7
5	10.847	10.793	10.867	TIC	9069	3392	2.67	0.02	 V 			0.02	0.04	0	0-0-0
6	10.953	10.867	11.000	TIC	26742	6894	3.88	0.06	 V 			0.06	0.09	0	0-0-0
7	11.027	11.000	11.093	TIC	35791	12737	2.81	0.07	 V 	trans-2-Pentenoic acid		0.07	0.16	85	13991-37-2
8	11.456	11.387	11.573	TIC	472362	120142	3.93	0.98	   	2,5-Hexanedione		0.98	1.49	96	110-13-4
9	12.179	12.133	12.273	TIC	49778	11637	4.28	0.10	   	2,4,4-Trimethyl-1-hexene		0.10	0.14	81	51174-12-0
10	12.372	12.333	12.393	TIC	9910	4642	2.13	0.02	   			0.02	0.06	0	0-0-0
11	12.485	12.393	12.633	TIC	188688	45185	4.18	0.39	 V 	2(3H)-Furanone, dihydro-5-methyl-		0.39	0.56	95	108-29-2
12	12.840	12.787	12.933	TIC	1085100	342267	3.17	2.25	   	2-Furancarboxaldehyde, 5-methyl-		2.25	4.24	96	620-2-0
13	12.968	12.933	13.060	TIC	87355	21161	4.13	0.18	 V 	2-Cyclopenten-1-one, 3-methyl-		0.18	0.26	94	2758-18-1
14	13.187	13.153	13.360	TIC	16340	4660	3.51	0.03	   	2,6-Heptanedione, 3-acetyl-		0.03	0.06	79	29214-57-1
15	13.386	13.360	13.427	TIC	11495	5633	2.04	0.02	 V 	4-Methyl-5H-furan-2-one		0.02	0.07	73	6124-79-4
16	13.661	13.600	13.760	TIC	228750	75153	3.04	0.47	   	Phenol		0.47	0.93	96	108-95-2
17	13.962	13.893	14.107	TIC	263734	56473	4.67	0.55	   	2-Hydroxy-gamma-butyrolactone		0.55	0.70	93	19444-84-9
18	14.140	14.107	14.207	TIC	28521	10106	2.82	0.06	 V 	Benzofuran		0.06	0.13	90	271-89-6
19	14.663	14.620	14.727	TIC	23227	6948	3.34	0.05	   	1-Propanone, 1-(2-furanyl)-		0.05	0.09	83	3194-15-8
20	15.243	15.153	15.407	TIC	1281623	328825	3.90	2.66	   	2-Cyclopenten-1-one, 2-hydroxy-3-methyl-		2.66	4.07	97	80-71-7
21	15.556	15.507	15.587	TIC	71572	23302	3.07	0.15	   	2-Furanmethanol		0.15	0.29	81	98-0-0
22	15.640	15.587	15.780	TIC	294448	66160	4.45	0.61	 V 	2-Acetyl-5-methylfuran		0.61	0.82	96	1193-79-9
23	16.116	16.073	16.220	TIC	30391	7939	3.83	0.06	   	4-Octanone, 2-methyl-		0.06	0.10	75	7492-38-8
24	16.398	16.347	16.447	TIC	27161	10316	2.63	0.06	   	Phenol, 2-methyl-		0.06	0.13	89	95-48-7
25	17.218	16.447	17.233	TIC	14092338	673999	20.91	29.23	 V 	Pentanoic acid, 4-oxo-		29.23	8.34	83	123-76-2
26	17.365	17.233	17.627	TIC	7251313	838026	8.65	15.04	SV 	Pentanoic acid, 4-oxo-		15.04	10.37	97	123-76-2
27	17.434	17.420	17.467	TIC	11031	9364	1.18	0.02	T  	2-Furancarboxylic acid		0.02	0.12	86	88-14-2
28	17.533	17.520	17.547	TIC	1065	1835	0.58	0.00	T  			0.00	0.02	0	0-0-0
29	17.587	17.553	17.627	TIC	8131	3858	2.11	0.02	T  	Ethanone, 1-(1-cyclohexen-1-yl)-		0.02	0.05	73	932-66-1
30	17.849	17.800	17.927	TIC	33543	10878	3.08	0.07	   	1,2-Cyclopentanedione, 3-methyl-		0.07	0.13	82	765-70-8
31	18.084	18.040	18.147	TIC	27661	8492	3.26	0.06	   	Cinnamaldehyde, (E)-		0.06	0.11	86	14371-10-9
32	18.291	18.147	18.347	TIC	207220	43072	4.81	0.43	 V 	Benzofuran, 2-methyl-		0.43	0.53	91	4265-25-2
33	18.400	18.347	18.467	TIC	186654	55342	3.37	0.39	 V 	4-Acetylbutyric acid		0.39	0.69	90	3128-6-1
34	18.500	18.467	18.520	TIC	16039	5751	2.79	0.03	 V 			0.03	0.07	0	0-0-0
35	18.608	18.520	18.633	TIC	43261	11992	3.61	0.09	 V 	2-Cyclopenten-1-one, 3-ethyl-2-hydroxy-		0.09	0.15	85	21835-1-8
36	18.653	18.633	18.680	TIC	20210	8682	2.33	0.04	 V 			0.04	0.11	0	0-0-0
37	18.808	18.680	18.853	TIC	64317	11001	5.85	0.13	 V 	1-(2,4-Dimethyl-furan-3-yl)-ethanone		0.13	0.14	83	32933-7-6
38	18.992	18.933	19.073	TIC	44265	13886	3.19	0.09	   	1-Propanone, 1-(5-methyl-2-furanyl)-		0.09	0.17	86	10599-69-6
39	19.687	19.640	19.773	TIC	83827	20196	4.15	0.17	   	4-Ketopimelic		0.17	0.25	82	502-50-1
40	19.801	19.773	19.867	TIC	34760	11266	3.09	0.07	 V 	4-Acetylbutyric acid		0.07	0.14	80	3128-6-1
41	20.089	20.027	20.147	TIC	69696	19350	3.60	0.14	   	Ethanone, 1-(2-hydroxyphenyl)-		0.14	0.24	80	118-93-4
42	20.230	20.147	20.280	TIC	65284	12104	5.39	0.14	 V 	2,3-Dihydroxybenzaldehyde		0.14	0.15	86	24677-78-9
43	20.491	20.420	20.533	TIC	27826	8498	3.27	0.06	   	Ethanone, 1-(2-methylphenyl)-		0.06	0.11	88	577-16-2
44	20.588	20.540	20.633	TIC	38899	13898	2.80	0.08	   	3-Methyl-1-dodecyn-3-ol		0.08	0.17	78	24424-78-0
45	20.973	20.880	21.053	TIC	107740	28277	3.81	0.22	   	5-(Hydroxymethyl)dihydrofuran-2(3H)-one		0.22	0.35	95	10374-51-3
46	21.120	21.053	21.213	TIC	55851	8130	6.87	0.12	 V 			0.12	0.10	0	0-0-0
47	21.237	21.213	21.307	TIC	32353	10880	2.97	0.07	 V 	Catechol		0.07	0.13	85	120-80-9
48	21.585	21.487	21.667	TIC	87426	16776	5.21	0.18	   	1H-Benzimidazole, 5,6-dimethyl-		0.18	0.21	86	582-60-5
49	21.784	21.700	21.853	TIC	361835	121413	2.98	0.75	   	Benzofuran, 4,7-dimethyl-		0.75	1.50	88	28715-26-6
50	22.038	21.953	22.087	TIC	89800	17831	5.04	0.19	   	Creosol		0.19	0.22	74	93-51-6
51	22.182	22.087	22.353	TIC	322925	67005	4.82	0.67	 V 	5-Hydroxymethylfurfural		0.67	0.83	92	67-47-0
52	22.453	22.353	22.473	TIC	31941	9715	3.29	0.07	 V 			0.07	0.12	0	0-0-0
53	22.497	22.473	22.580	TIC	70703	16777	4.21	0.15	 V 	Cyclopenten-4-one, 1,2,3,3-tetramethyl-		0.15	0.21	74	0-0-0
54	22.619	22.580	22.660	TIC	46550	14181	3.28	0.10	 V 	2-Acetonylcyclopentanone		0.10	0.18	79	60415-94-3
55	22.710	22.660	22.780	TIC	78577	24861	3.16	0.16	 V 	3,4-dimethylfuran		0.16	0.31	83	0-0-0
56	23.199	23.140	23.267	TIC	27628	7971	3.47	0.06	   			0.06	0.10	0	0-0-0
57	23.430	23.373	23.507	TIC	59805	18087	3.31	0.12	   	Cyclobutanecarboxylic acid, tridec-2-ynyl ester		0.12	0.22	78	0-0-0
58	23.596	23.527	23.787	TIC	847688	118669	7.14	1.76	   	Hydroquinone		1.76	1.47	95	123-31-9
59	23.848	23.787	23.920	TIC	96946	25075	3.87	0.20	 V 	1H-Inden-1-one, 2,3-dihydro-		0.20	0.31	94	83-33-0
60	23.976	23.920	24.167	TIC	159958	20872	7.66	0.33	 V 			0.33	0.26	0	0-0-0
61	24.561	24.513	24.627	TIC	30777	11009	2.80	0.06	   	3-Undecene-2,5,10-trione, 6,6-dimethyl-		0.06	0.14	73	51298-67-0
62	24.683	24.627	24.733	TIC	119334	33626	3.55	0.25	   	Benzaldehyde, 3-hydroxy-		0.25	0.42	95	100-83-4
63	24.870	24.733	24.893	TIC	188577	30276	6.23	0.39	 V 	2-Coumaranone		0.39	0.37	80	553-86-6
64	24.938	24.893	25.040	TIC	191509	45503	4.21	0.40	 V 	2-Hexenoic acid, 3,4,4-trimethyl-5-oxo-, (Z)-		0.40	0.56	80	14919-56-3
65	25.113	25.040	25.140	TIC	14689	5762	2.55	0.03	 V 			0.03	0.07	0	0-0-0
66	25.460	25.433	25.573	TIC	23156	5091	4.55	0.05	   			0.05	0.06	0	0-0-0
67	25.613	25.573	25.653	TIC	38694	9929	3.90	0.08	 V 	Cyclohexanol, 2-methyl-, propionate, trans-		0.08	0.12	70	15287-79-3
68	25.687	25.653	25.740	TIC	42164	12415	3.40	0.09	 V 			0.09	0.15	0	0-0-0
69	26.007	25.973	26.053	TIC	19733	4840	4.08	0.04	   	4-Hydroxy-1-indanone		0.04	0.06	82	40731-98-4
70	26.080	26.053	26.140	TIC	49975	11413	4.38	0.10	 V 			0.10	0.14	0	0-0-0
71	26.200	26.140	26.340	TIC	539434	166619	3.24	1.12	 V 	p-Nitrophenyl hexanoate		1.12	2.06	84	956-75-2
72	26.485	26.420	26.547	TIC	131705	39795	3.31	0.27	   	2-((3,3-Dimethyloxiran-2-yl)methyl)-3-methylfuran		0.27	0.49	80	92356-6-4
73	26.601	26.547	26.667	TIC	67579	17135	3.94	0.14	 V 			0.14	0.21	0	0-0-0
74	26.720	26.667	26.747	TIC	15465	3420	4.52	0.03	 V 			0.03	0.04	0	0-0-0
75	26.914	26.847	27.027	TIC	85132	17000	5.01	0.18	   			0.18	0.21	0	0-0-0
76	27.139	27.027	27.240	TIC	412129	97003	4.25	0.85	 V 	Ethanone, 1-(3-hydroxyphenyl)-		0.85	1.20	92	121-71-1
77	27.273	27.240	27.307	TIC	62934	18937	3.32	0.13	 V 	6,6,7-Trimethyl-octane-2,5-dione		0.13	0.23	72	0-0-0
78	27.344	27.307	27.413	TIC	117059	32376	3.62	0.24	 V 	2-Cyclohexen-1-one, 4,4,6-trimethyl-		0.24	0.40	75	13395-73-8
79	27.541	27.413	27.580	TIC	128072	25597	5.00	0.27	 V 			0.27	0.32	0	0-0-0
80	27.623	27.580	27.707	TIC	124589	27486	4.53	0.26	 V 			0.26	0.34	0	0-0-0
81	27.794	27.727	27.900	TIC	425241	120082	3.54	0.88	   	Pyrrole-3-carbonitrile, 5-formyl-2,4-dimethyl-		0.88	1.49	88	32487-71-1
82	27.992	27.900	28.047	TIC	122801	29950	4.10	0.25	 V 	2-Acetylbenzofuran		0.25	0.37	87	1646-26-0
83	28.209	28.160	28.260	TIC	33905	11392	2.98	0.07	   	Furan, 2,2'-methylenebis-		0.07	0.14	78	1197-40-6
84	28.336	28.260	28.407	TIC	39762	10250	3.88	0.08	 V 	Acetophenone, 4'-hydroxy-		0.08	0.13	85	99-93-4
85	28.565	28.527	28.613	TIC	18577	7183	2.59	0.04	   			0.04	0.09	0	0-0-0
86	28.662	28.613	28.727	TIC	42200	14881	2.84	0.09	   	Ethanone, 1,1'-(1,4-phenylene)bis-		0.09	0.18	88	1009-61-6
87	28.877	28.820	28.973	TIC	191801	45475	4.22	0.40	   			0.40	0.56	0	0-0-0
88	29.027	28.973	29.073	TIC	75007	19696	3.81	0.16	 V 	Ethanone, 1-(1-cyclohexen-1-yl)-		0.16	0.24	77	932-66-1
89	29.107	29.073	29.200	TIC	111912	16214	6.90	0.23	 V 	Pentanoic acid, 4-oxo-, ethyl ester		0.23	0.20	75	58163-59-0
90	29.244	29.200	29.307	TIC	154940	38325	4.04	0.32	 V 			0.32	0.47	0	0-0-0
91	29.360	29.307	29.387	TIC	59644	16321	3.65	0.12	 V 			0.12	0.20	0	0-0-0
92	29.447	29.387	29.480	TIC	72754	15630	4.65	0.15	 V 			0.15	0.19	0	0-0-0
93	29.528	29.480	29.560	TIC	67905	19034	3.57	0.14	 V 	Ethanone, 1-(2-hydroxy-5-methylphenyl)-		0.14	0.24	82	1450-72-2
94	29.647	29.560	29.687	TIC	234970	58428	4.02	0.49	 V 	1-Propanone, 1-(5-methyl-2-furanyl)-		0.49	0.72	79	10599-69-6
95	29.713	29.687	29.780	TIC	145175	43730	3.32	0.30	 V 	Furan, 2,5-dibutyl-		0.30	0.54	77	72636-53-4
96	29.873	29.780	29.900	TIC	48137	8796	5.47	0.10	 V 	6,6-Dimethyl-9-methylene-undec-3-ene-2,5,10-trione		0.10	0.11	75	0-0-0
97	29.947	29.900	30.000	TIC	52976	14784	3.58	0.11	 V 	4-Piperidinopyridine		0.11	0.18	78	2767-90-0
98	30.053	30.000	30.073	TIC	67330	21022	3.20	0.14	 V 	Ethanone, 1-(2,5-dihydroxyphenyl)-		0.14	0.26	75	490-78-8
99	30.099	30.073	30.160	TIC	88829	24783	3.58	0.18	 V 	7a-Methyl-3-methylenehexahydrobenzofuran-2-one		0.18	0.31	76	67498-53-7
100	30.193	30.160	30.227	TIC	16148	4914	3.29	0.03	 V 	4-Hydroxy-2-methylacetophenone		0.03	0.06	70	875-59-2
101	30.327	30.280	30.493	TIC	59101	5124	11.53	0.12	   			0.12	0.06	0	0-0-0
102	30.548	30.493	30.620	TIC	95283	16507	5.77	0.20	 V 			0.20	0.20	0	0-0-0
103	30.689	30.620	30.760	TIC	178146	39644	4.49	0.37	 V 	5,6-Dimethyl-2-benzimidazolinone		0.37	0.49	72	2033-30-9
104	30.854	30.760	30.893	TIC	153740	30381	5.06	0.32	 V 			0.32	0.38	0	0-0-0
105	30.942	30.893	30.973	TIC	112390	26581	4.23	0.23	 V 			0.23	0.33	0	0-0-0
106	31.099	30.973	31.187	TIC	680299	139681	4.87	1.41	 V 	Furan, 2,2'-methylenebis[5-methyl-		1.41	1.73	79	13679-43-1
107	31.241	31.187	31.300	TIC	303109	69309	4.37	0.63	 V 	1-Naphthalenol, 4-methoxy-		0.63	0.86	87	84-85-5
108	31.333	31.300	31.433	TIC	210052	44413	4.73	0.44	 V 	Furan, 2-(2-furanylmethyl)-5-methyl-		0.44	0.55	83	13678-51-8
109	31.500	31.433	31.527	TIC	71838	13007	5.52	0.15	 V 			0.15	0.16	0	0-0-0
110	31.553	31.527	31.573	TIC	21574	9146	2.36	0.04	 V 			0.04	0.11	0	0-0-0
111	31.680	31.573	31.787	TIC	193676	17420	11.12	0.40	 V 			0.40	0.22	0	0-0-0
112	31.849	31.787	31.927	TIC	240620	46931	5.13	0.50	 V 	Indene-1,7(4H)-dione, 3a,7a-dihydro-5-methyl-		0.50	0.58	74	21149-14-4
113	31.994	31.927	32.040	TIC	66653	15119	4.41	0.14	 V 			0.14	0.19	0	0-0-0
114	32.093	32.040	32.200	TIC	175059	48456	3.61	0.36	 V 	Bicyclo[2.2.2]oct-5-ene, 2-methoxymethylene-		0.36	0.60	82	0-0-0
115	32.412	32.353	32.473	TIC	46579	11453	4.07	0.10	   	Benzene, 1-(1-methyl-2-propenyl)-4-(2-methylpropyl)-		0.10	0.14	72	57438-46-7
116	32.564	32.473	32.673	TIC	237813	40489	5.87	0.49	 V 	1(2H)-Naphthalenone, 3,4-dihydro-6-methoxy-		0.49	0.50	71	1078-19-9
117	32.728	32.673	32.800	TIC	75484	17286	4.37	0.16	 V 			0.16	0.21	0	0-0-0
118	32.895	32.800	32.953	TIC	113157	26094	4.34	0.23	   	4-Hydroxy-1-indanone		0.23	0.32	79	40731-98-4
119	33.000	32.953	33.027	TIC	20808	6382	3.26	0.04	 V 			0.04	0.08	0	0-0-0
120	33.331	33.253	33.373	TIC	49894	10930	4.56	0.10	   			0.10	0.14	0	0-0-0
122	33.638	33.580	33.687	TIC	86342	25039	3.45	0.18	   	2-Furancarboxaldehyde, 5-[(5-methyl-2-furanyl)methyl]-		0.18	0.31	74	34995-74-9
123	33.753	33.687	33.773	TIC	34066	5784	5.89	0.07	 V 			0.07	0.07	0	0-0-0
124	33.847	33.773	33.953	TIC	53699	8309	6.46	0.11	 V 			0.11	0.10	0	0-0-0
125	34.017	33.953	34.133	TIC	474694	113727	4.17	0.98	 V 	3-Amino-1,5,6,7-tetrahydroindazol-4-one		0.98	1.41	73	0-0-0
126	34.207	34.133	34.300	TIC	84423	15257	5.53	0.18	 V 			0.18	0.19	0	0-0-0
127	34.360	34.300	34.400	TIC	71902	17719	4.06	0.15	   			0.15	0.22	0	0-0-0
128	34.422	34.400	34.493	TIC	69180	20264	3.41	0.14	 V 			0.14	0.25	0	0-0-0
129	34.649	34.493	34.733	TIC	145499	32566	4.47	0.30	 V 	1,4,5,7-Tetramethyl-furo[3,4-d]pyridazine		0.30	0.40	78	0-0-0
130	34.773	34.733	34.867	TIC	46304	7674	6.03	0.10	   			0.10	0.09	0	0-0-0
131	34.927	34.867	34.993	TIC	92642	14639	6.33	0.19	 V 	.alpha.-Furil		0.19	0.18	73	492-94-4
132	35.065	34.993	35.140	TIC	982910	260239	3.78	2.04	 V 	2H-1,4-Benzoxazin-3(4H)-one, 6-amino-7-methyl-		2.04	3.22	75	0-0-0
133	35.269	35.140	35.387	TIC	241851	23965	10.09	0.50	 V 			0.50	0.30	0	0-0-0
134	35.440	35.387	35.473	TIC	24936	6564	3.80	0.05	 V 			0.05	0.08	0	0-0-0
135	35.630	35.580	35.667	TIC	48667	15145	3.21	0.10	   			0.10	0.19	0	0-0-0
136	35.703	35.667	35.773	TIC	61348	14625	4.19	0.13	 V 			0.13	0.18	0	0-0-0
137	35.871	35.773	35.933	TIC	50579	11759	4.30	0.10	 V 			0.10	0.15	0	0-0-0
138	36.039	35.967	36.093	TIC	136460	30797	4.43	0.28	   			0.28	0.38	0	0-0-0
139	36.113	36.093	36.160	TIC	30547	12943	2.36	0.06	 V 	3-[3,4-methylenedioxyphenyl]-3-buten-2-one		0.06	0.16	71	0-0-0
140	36.419	36.333	36.493	TIC	339182	92287	3.68	0.70	   	Pyrazol-5(4H)-one, 3-(4-methoxyphenyl)-		0.70	1.14	79	1578-89-8
141	36.603	36.520	36.713	TIC	769356	199106	3.86	1.60	   	2H-1-benzopyran-2-one, 3,4-dihydro-6-hydroxy-5,7-dimethyl-		1.60	2.46	79	0-0-0
142	36.774	36.713	36.880	TIC	78625	15314	5.13	0.16	 V 			0.16	0.19	0	0-0-0
143	37.004	36.927	37.047	TIC	48360	13306	3.63	0.10	   			0.10	0.16	0	0-0-0
144	37.429	37.267	37.560	TIC	616878	135290	4.56	1.28	   	1,4-Dimethyl-4,5,7,8-tetrahydroimidazo-[4,5-E]-1,4-diazepin-5,8(6H)-dione		1.28	1.67	74	130063-15-9
145	37.659	37.560	37.727	TIC	530214	138552	3.83	1.10	 V 	Acetic acid, 3-cyclohex-1-enyl-1-methylprop-2-ynyl ester		1.10	1.71	72	162518-99-2
146	37.772	37.727	37.860	TIC	144008	33590	4.29	0.30	 V 			0.30	0.42	0	0-0-0
147	37.947	37.860	37.973	TIC	15392	5242	2.94	0.03	 V 			0.03	0.06	0	0-0-0
148	38.072	38.000	38.180	TIC	108888	18035	6.04	0.23	   	Pentacyclo[8.4.0.0(3,7).0(4,14).0(6,11)]tetradecane		0.23	0.22	70	0-0-0
149	38.236	38.180	38.293	TIC	40870	11370	3.59	0.08	   			0.08	0.14	0	0-0-0
150	38.998	38.940	39.033	TIC	38296	12959	2.96	0.08	   			0.08	0.16	0	0-0-0
151	39.327	39.293	39.447	TIC	28107	4297	6.54	0.06	   			0.06	0.05	0	0-0-0
152	39.513	39.447	39.633	TIC	89773	18626	4.82	0.19	 V 			0.19	0.23	0	0-0-0
153	39.771	39.720	39.833	TIC	22810	6911	3.30	0.05	   			0.05	0.09	0	0-0-0
154	40.225	40.093	40.307	TIC	36768	5451	6.75	0.08	   			0.08	0.07	0	0-0-0
155	40.400	40.333	40.480	TIC	326658	94779	3.45	0.68	   	n-Hexadecanoic acid		0.68	1.17	93	57-10-3
156	40.758	40.687	40.813	TIC	158591	42977	3.69	0.33	   			0.33	0.53	0	0-0-0
157	40.867	40.813	40.927	TIC	39488	8422	4.69	0.08	 V 			0.08	0.10	0	0-0-0
158	41.700	41.687	41.787	TIC	5982	1989	3.01	0.01	   			0.01	0.02	0	0-0-0
159	41.847	41.787	41.867	TIC	33230	11260	2.95	0.07	   			0.07	0.14	0	0-0-0
160	41.887	41.867	41.907	TIC	27252	12742	2.14	0.06	 V 			0.06	0.16	0	0-0-0
161	41.966	41.907	42.033	TIC	113275	25796	4.39	0.23	 V 			0.23	0.32	0	0-0-0
162	42.053	42.033	42.073	TIC	7932	4773	1.66	0.02	 V 			0.02	0.06	0	0-0-0
163	42.275	42.247	42.307	TIC	9724	5437	1.79	0.02	   			0.02	0.07	0	0-0-0
164	42.387	42.307	42.440	TIC	24843	7891	3.15	0.05	 V 			0.05	0.10	0	0-0-0
165	42.639	42.573	42.673	TIC	21775	5779	3.77	0.05	   			0.05	0.07	0	0-0-0
166	42.788	42.673	42.847	TIC	72276	12156	5.95	0.15	 V 			0.15	0.15	0	0-0-0
167	42.920	42.847	43.007	TIC	91547	16483	5.55	0.19	 V 			0.19	0.20	0	0-0-0
168	43.040	43.007	43.080	TIC	13361	5155	2.59	0.03	 V 			0.03	0.06	0	0-0-0
169	43.544	43.487	43.580	TIC	26966	9706	2.78	0.06	   			0.06	0.12	0	0-0-0
170	43.640	43.580	43.693	TIC	28313	7739	3.66	0.06	 V 			0.06	0.10	0	0-0-0
171	43.855	43.800	43.907	TIC	57529	15648	3.68	0.12	   	Hexanoic acid, 4-hexadecyl ester		0.12	0.19	79	0-0-0
172	43.951	43.907	44.000	TIC	34492	10180	3.39	0.07	 V 			0.07	0.13	0	0-0-0
173	44.040	44.000	44.073	TIC	10276	4355	2.36	0.02	 V 			0.02	0.05	0	0-0-0
174	44.318	44.227	44.413	TIC	237295	65944	3.60	0.49	   	Octadecanoic acid		0.49	0.82	91	57-11-4
175	45.113	45.093	45.187	TIC	10897	4018	2.71	0.02	   			0.02	0.05	0	0-0-0
176	45.207	45.187	45.307	TIC	42362	6619	6.40	0.09	 V 			0.09	0.08	0	0-0-0
177	45.351	45.307	45.373	TIC	35357	11779	3.00	0.07	 V 			0.07	0.15	0	0-0-0
178	45.387	45.373	45.440	TIC	17868	8726	2.05	0.04	 V 			0.04	0.11	0	0-0-0
179	46.394	46.333	46.520	TIC	55487	10378	5.35	0.12	   			0.12	0.13	0	0-0-0
180	46.941	46.853	47.013	TIC	33512	6384	5.25	0.07	   			0.07	0.08	0	0-0-0
181	47.210	47.040	47.253	TIC	42059	6201	6.78	0.09	   			0.09	0.08	0	0-0-0
182	47.427	47.407	47.500	TIC	10192	3687	2.76	0.02	   			0.02	0.05	0	0-0-0
183	47.907	47.860	47.960	TIC	25309	7872	3.22	0.05	   			0.05	0.10	0	0-0-0
184	49.413	49.393	49.440	TIC	4082	2821	1.45	0.01	   			0.01	0.03	0	0-0-0
185	49.854	49.807	49.940	TIC	54040	17521	3.08	0.11	   	Diethylene glycol dibenzoate		0.11	0.22	92	120-55-8
186	50.102	50.067	50.173	TIC	25857	7091	3.65	0.05	   			0.05	0.09	0	0-0-0
187	50.573	50.560	50.667	TIC	25664	3239	7.92	0.05	   			0.05	0.04	0	0-0-0
188	50.699	50.667	50.853	TIC	66756	11792	5.66	0.14	 V 			0.14	0.15	0	0-0-0
189	51.420	51.340	51.473	TIC	99964	20256	4.94	0.21	   			0.21	0.25	0	0-0-0
190	51.525	51.473	51.593	TIC	125247	20742	6.04	0.26	 V 			0.26	0.26	0	0-0-0
191	51.647	51.593	51.713	TIC	53593	10583	5.06	0.11	 V 			0.11	0.13	0	0-0-0
192	53.978	53.927	54.020	TIC	20000	7632	2.62	0.04	   	1,4-Benzenedicarboxylic acid, bis(2-ethylhexyl) ester		0.04	0.09	80	6422-86-2
193	54.147	54.133	54.220	TIC	9208	3229	2.85	0.02	   			0.02	0.04	0	0-0-0
194	54.773	54.753	54.847	TIC	11870	3956	3.00	0.02	   			0.02	0.05	0	0-0-0
195	57.289	57.267	57.320	TIC	6408	3871	1.66	0.01	   			0.01	0.05	0	0-0-0
196	57.440	57.427	57.613	TIC	31519	3480	9.06	0.07	   			0.07	0.04	0	0-0-0
197	57.627	57.613	57.693	TIC	19337	4768	4.06	0.04	 V 			0.04	0.06	0	0-0-0
198	57.765	57.693	57.893	TIC	99653	11743	8.49	0.21	 V 			0.21	0.15	0	0-0-0
199	60.487	60.300	60.660	TIC	547192	55594	9.84	1.13	   			1.13	0.69	0	0-0-0

