[Header]
Data File Name	C:\Users\user\Documents\jla278\June 1st 2023\CLS_SCNN_1000_3.qgd
Output Date	6/2/2023
Output Time	2:37:02 PM

[MC Peak Table]
# of Peaks	180
Mass	TIC
Peak#	Ret.Time	Proc.From	Proc.To	Mass	Area	Height	A/H	Conc.	Mark	Name	Ret. Index	Area%	Height%	SI	CAS #
1	7.317	7.260	7.520	TIC	2182947	568833	3.84	4.68	   	3-Furaldehyde		4.68	7.53	96	498-60-2
2	7.990	7.920	8.073	TIC	51093	8232	6.21	0.11	   	Acetic acid, hydroxy-		0.11	0.11	88	79-14-1
3	8.501	8.453	8.660	TIC	178755	40693	4.39	0.38	   	2-Butanone		0.38	0.54	93	78-93-3
4	9.725	9.680	9.753	TIC	21013	7021	2.99	0.05	   	Propanoic acid, 2-hydroxy-, ethyl ester		0.05	0.09	87	97-64-3
5	10.474	10.407	10.580	TIC	74631	19760	3.78	0.16	   	2-Cyclopenten-1-one, 2-methyl-		0.16	0.26	89	1120-73-6
6	10.665	10.580	10.807	TIC	462226	138420	3.34	0.99	   	Ethanone, 1-(2-furanyl)-		0.99	1.83	97	1192-62-7
7	11.027	10.920	11.073	TIC	74573	16595	4.49	0.16	   	trans-2-Pentenoic acid		0.16	0.22	90	13991-37-2
8	11.458	11.400	11.593	TIC	459110	116159	3.95	0.98	   	2,5-Hexanedione		0.98	1.54	97	110-13-4
9	12.179	12.140	12.273	TIC	41381	10051	4.12	0.09	   	1-Hexene, 4,5-dimethyl-		0.09	0.13	83	16106-59-5
10	12.483	12.447	12.640	TIC	184723	44513	4.15	0.40	   	2(3H)-Furanone, dihydro-5-methyl-		0.40	0.59	95	108-29-2
11	12.838	12.780	12.933	TIC	1069189	329849	3.24	2.29	   	2-Furancarboxaldehyde, 5-methyl-		2.29	4.37	96	620-2-0
12	12.977	12.933	13.140	TIC	121434	21008	5.78	0.26	 V 	2-Cyclopenten-1-one, 3-methyl-		0.26	0.28	94	2758-18-1
13	13.193	13.167	13.360	TIC	11523	4084	2.82	0.02	   	2,4-Pentanedione, 3-ethyl-		0.02	0.05	80	1540-34-7
14	13.660	13.593	13.753	TIC	229162	73827	3.10	0.49	   	Phenol		0.49	0.98	97	108-95-2
15	13.813	13.753	13.833	TIC	18090	4445	4.07	0.04	 V 			0.04	0.06	0	0-0-0
16	13.961	13.833	14.107	TIC	281941	54990	5.13	0.60	 V 	2-Hydroxy-gamma-butyrolactone		0.60	0.73	93	19444-84-9
17	14.136	14.107	14.213	TIC	43318	12575	3.44	0.09	 V 	Benzofuran		0.09	0.17	89	271-89-6
18	14.666	14.627	14.740	TIC	18149	6006	3.02	0.04	   	1-Propanone, 1-(2-furanyl)-		0.04	0.08	86	3194-15-8
19	15.243	15.153	15.427	TIC	1286053	327406	3.93	2.76	   	2-Cyclopenten-1-one, 2-hydroxy-3-methyl-		2.76	4.34	96	80-71-7
20	15.560	15.427	15.600	TIC	89727	22391	4.01	0.19	 V 	Cyclopentanone, 2-methyl-		0.19	0.30	81	1120-72-5
21	15.644	15.600	15.787	TIC	285839	64844	4.41	0.61	 V 	2-Acetyl-5-methylfuran		0.61	0.86	95	1193-79-9
22	15.967	15.940	16.087	TIC	35345	3887	9.09	0.08	   			0.08	0.05	0	0-0-0
23	16.124	16.087	16.167	TIC	23914	8458	2.83	0.05	 V 	4-Octanone, 2-methyl-		0.05	0.11	77	7492-38-8
24	16.400	16.353	16.447	TIC	23068	9224	2.50	0.05	   	Phenol, 2-methyl-		0.05	0.12	90	95-48-7
25	16.998	16.447	17.013	TIC	6561353	428587	15.31	14.06	 V 	Pentanoic acid, 4-oxo-		14.06	5.68	89	123-76-2
26	17.377	17.013	17.420	TIC	14579856	862755	16.90	31.25	 V 	Pentanoic acid, 4-oxo-		31.25	11.42	97	123-76-2
27	17.440	17.420	17.507	TIC	111003	34762	3.19	0.24	 V 	2-Furancarboxylic acid		0.24	0.46	87	88-14-2
28	17.607	17.507	17.653	TIC	66094	6845	9.66	0.14	 V 			0.14	0.09	0	0-0-0
29	17.846	17.800	17.927	TIC	30203	9735	3.10	0.06	   	1,2-Cyclopentanedione, 3-methyl-		0.06	0.13	83	765-70-8
30	18.084	18.033	18.133	TIC	26158	7944	3.29	0.06	   	Cinnamaldehyde, (E)-		0.06	0.11	87	14371-10-9
31	18.288	18.133	18.347	TIC	193094	44476	4.34	0.41	 V 	Benzofuran, 2-methyl-		0.41	0.59	89	4265-25-2
32	18.401	18.347	18.513	TIC	170021	52287	3.25	0.36	 V 	4-Acetylbutyric acid		0.36	0.69	90	3128-6-1
33	18.603	18.567	18.760	TIC	66931	11001	6.08	0.14	   	2-Cyclopenten-1-one, 3-ethyl-2-hydroxy-		0.14	0.15	90	21835-1-8
34	18.809	18.767	18.847	TIC	16115	5825	2.77	0.03	   	1-(2,4-Dimethyl-furan-3-yl)-ethanone		0.03	0.08	86	32933-7-6
35	18.991	18.920	19.060	TIC	57236	15559	3.68	0.12	   	1-Propanone, 1-(5-methyl-2-furanyl)-		0.12	0.21	84	10599-69-6
36	19.688	19.633	19.767	TIC	71336	19263	3.70	0.15	   	4-Ketopimelic		0.15	0.26	81	502-50-1
37	19.804	19.767	19.853	TIC	14189	5080	2.79	0.03	 V 	4-Acetylbutyric acid		0.03	0.07	80	3128-6-1
38	20.094	20.033	20.147	TIC	57003	16340	3.49	0.12	   	Ethanone, 1-(2-hydroxyphenyl)-		0.12	0.22	77	118-93-4
39	20.220	20.147	20.300	TIC	48386	11902	4.07	0.10	 V 	2,3-Dihydroxybenzaldehyde		0.10	0.16	88	24677-78-9
40	20.484	20.433	20.527	TIC	25605	8464	3.03	0.05	   	Ethanone, 1-(3-methylphenyl)-		0.05	0.11	89	585-74-0
41	20.587	20.533	20.633	TIC	45345	16151	2.81	0.10	   	3-Methyl-1-dodecyn-3-ol		0.10	0.21	77	24424-78-0
42	20.973	20.880	21.047	TIC	109510	27436	3.99	0.23	   	5-(Hydroxymethyl)dihydrofuran-2(3H)-one		0.23	0.36	95	10374-51-3
43	21.107	21.047	21.220	TIC	57358	6955	8.25	0.12	 V 			0.12	0.09	0	0-0-0
44	21.238	21.220	21.293	TIC	26189	11908	2.20	0.06	 V 	Catechol		0.06	0.16	88	120-80-9
45	21.578	21.493	21.687	TIC	86984	18788	4.63	0.19	   	1H-Benzimidazole, 5,6-dimethyl-		0.19	0.25	86	582-60-5
46	21.782	21.700	21.847	TIC	367806	121097	3.04	0.79	   	Benzofuran, 4,7-dimethyl-		0.79	1.60	88	28715-26-6
47	22.017	21.847	22.100	TIC	142457	20228	7.04	0.31	 V 			0.31	0.27	0	0-0-0
48	22.181	22.100	22.320	TIC	341421	71646	4.77	0.73	 V 	5-Hydroxymethylfurfural		0.73	0.95	92	67-47-0
49	22.503	22.320	22.573	TIC	119306	16342	7.30	0.26	 V 	Cyclopenten-4-one, 1,2,3,3-tetramethyl-		0.26	0.22	74	0-0-0
50	22.618	22.573	22.660	TIC	50041	13807	3.62	0.11	 V 	5-Octen-4-one, 7-methyl-		0.11	0.18	80	32064-78-1
51	22.709	22.660	22.780	TIC	83800	25170	3.33	0.18	 V 	3,4-dimethylfuran		0.18	0.33	83	0-0-0
52	22.843	22.780	22.973	TIC	40672	6006	6.77	0.09	   	Butanedioic acid, monomethyl ester		0.09	0.08	79	3878-55-5
53	23.205	23.147	23.240	TIC	21603	7880	2.74	0.05	   			0.05	0.10	0	0-0-0
54	23.428	23.360	23.480	TIC	55967	17473	3.20	0.12	   	Cyclobutanecarboxylic acid, undec-2-enyl ester		0.12	0.23	80	0-0-0
55	23.599	23.480	23.780	TIC	837144	117559	7.12	1.79	 V 	Hydroquinone		1.79	1.56	95	123-31-9
56	23.848	23.780	23.907	TIC	94337	25726	3.67	0.20	 V 	1H-Inden-1-one, 2,3-dihydro-		0.20	0.34	94	83-33-0
57	23.992	23.907	24.167	TIC	215865	26389	8.18	0.46	 V 			0.46	0.35	0	0-0-0
58	24.233	24.167	24.287	TIC	33469	6371	5.25	0.07	 V 			0.07	0.08	0	0-0-0
59	24.327	24.287	24.520	TIC	67204	4602	14.60	0.14	   			0.14	0.06	0	0-0-0
60	24.558	24.520	24.613	TIC	50722	15122	3.35	0.11	 V 	3-Undecene-2,5,10-trione, 6,6-dimethyl-		0.11	0.20	73	51298-67-0
61	24.683	24.613	24.740	TIC	143187	36209	3.95	0.31	 V 	Benzaldehyde, 3-hydroxy-		0.31	0.48	95	100-83-4
62	24.863	24.740	24.893	TIC	196609	29829	6.59	0.42	 V 	2-Coumaranone		0.42	0.39	78	553-86-6
63	24.935	24.893	25.067	TIC	203683	48276	4.22	0.44	 V 	2-Hexenoic acid, 3,4,4-trimethyl-5-oxo-, (Z)-		0.44	0.64	81	14919-56-3
64	25.108	25.067	25.140	TIC	16083	7161	2.25	0.03	   			0.03	0.09	0	0-0-0
65	25.267	25.140	25.293	TIC	10060	4551	2.21	0.02	 V 			0.02	0.06	0	0-0-0
66	25.473	25.447	25.553	TIC	11397	4322	2.64	0.02	   			0.02	0.06	0	0-0-0
67	25.613	25.553	25.660	TIC	56276	12765	4.41	0.12	   			0.12	0.17	0	0-0-0
68	25.688	25.660	25.740	TIC	51842	15367	3.37	0.11	 V 			0.11	0.20	0	0-0-0
69	25.799	25.740	25.947	TIC	84720	10041	8.44	0.18	 V 			0.18	0.13	0	0-0-0
70	26.013	25.947	26.040	TIC	15263	4928	3.10	0.03	 V 	4-Hydroxy-1-indanone		0.03	0.07	79	40731-98-4
71	26.087	26.040	26.107	TIC	27227	11392	2.39	0.06	 V 			0.06	0.15	0	0-0-0
72	26.198	26.107	26.313	TIC	544614	163457	3.33	1.17	 V 	p-Nitrophenyl hexanoate		1.17	2.16	84	956-75-2
73	26.487	26.427	26.553	TIC	121007	36557	3.31	0.26	   	Glycine, N-(2-furanylcarbonyl)-, methyl ester		0.26	0.48	79	13290-0-1
74	26.598	26.553	26.647	TIC	42215	14482	2.91	0.09	 V 			0.09	0.19	0	0-0-0
75	26.914	26.840	27.033	TIC	87875	14276	6.16	0.19	   			0.19	0.19	0	0-0-0
76	27.138	27.033	27.233	TIC	422637	97228	4.35	0.91	 V 	Ethanone, 1-(3-hydroxyphenyl)-		0.91	1.29	92	121-71-1
77	27.280	27.233	27.313	TIC	80695	20263	3.98	0.17	 V 	6,6,7-Trimethyl-octane-2,5-dione		0.17	0.27	76	0-0-0
78	27.344	27.313	27.420	TIC	95693	28425	3.37	0.21	 V 	2-Cyclohexen-1-one, 3,4-dimethyl-		0.21	0.38	75	0-0-0
79	27.541	27.420	27.573	TIC	112174	25234	4.45	0.24	 V 			0.24	0.33	0	0-0-0
80	27.624	27.573	27.720	TIC	124516	25420	4.90	0.27	 V 			0.27	0.34	0	0-0-0
81	27.793	27.727	27.893	TIC	441800	123504	3.58	0.95	   	2-Methyl-5-hydroxybenzofuran		0.95	1.64	88	6769-56-8
82	27.986	27.893	28.040	TIC	143121	32322	4.43	0.31	 V 	2-Acetylbenzofuran		0.31	0.43	85	1646-26-0
83	28.207	28.160	28.280	TIC	44259	12985	3.41	0.09	   	Furan, 2,2'-methylenebis-		0.09	0.17	79	1197-40-6
84	28.342	28.280	28.380	TIC	26167	8244	3.17	0.06	   	Acetophenone, 4'-hydroxy-		0.06	0.11	87	99-93-4
85	28.563	28.527	28.613	TIC	15873	5918	2.68	0.03	   			0.03	0.08	0	0-0-0
86	28.661	28.620	28.707	TIC	40184	15314	2.62	0.09	   	Ethanone, 1,1'-(1,4-phenylene)bis-		0.09	0.20	88	1009-61-6
87	28.874	28.813	28.967	TIC	182814	43154	4.24	0.39	   	5,8-Tridecadione		0.39	0.57	70	67238-16-8
88	29.026	28.967	29.073	TIC	60729	19773	3.07	0.13	   	Ethanone, 1-(1-cyclohexen-1-yl)-		0.13	0.26	74	932-66-1
89	29.107	29.073	29.193	TIC	87317	12368	7.06	0.19	 V 	Pentanoic acid, 4-oxo-, ethyl ester		0.19	0.16	76	58163-59-0
90	29.239	29.193	29.313	TIC	151255	37068	4.08	0.32	 V 			0.32	0.49	0	0-0-0
91	29.421	29.313	29.487	TIC	87942	11325	7.77	0.19	 V 	Benzoic acid, 3-hydroxy-		0.19	0.15	75	99-6-9
92	29.527	29.487	29.600	TIC	58105	11489	5.06	0.12	 V 	4-Hydroxy-3-methylacetophenone		0.12	0.15	83	876-2-8
93	29.647	29.600	29.687	TIC	162955	47918	3.40	0.35	 V 	1-Propanone, 1-(5-methyl-2-furanyl)-		0.35	0.63	78	10599-69-6
94	29.715	29.687	29.787	TIC	99977	35532	2.81	0.21	 V 	Furan, 2,5-dibutyl-		0.21	0.47	77	72636-53-4
95	29.943	29.907	29.987	TIC	29028	11448	2.54	0.06	   	5H-1-Pyrindine, 6,7-dihydro-4-amino-2,3-dimethyl-, hydrate		0.06	0.15	80	62732-46-1
96	30.040	29.993	30.073	TIC	59267	17968	3.30	0.13	   	Ethanone, 1-(2,5-dihydroxyphenyl)-		0.13	0.24	77	490-78-8
97	30.102	30.073	30.153	TIC	78078	24028	3.25	0.17	 V 	7a-Methyl-3-methylenehexahydrobenzofuran-2-one		0.17	0.32	76	67498-53-7
98	30.187	30.153	30.220	TIC	17655	6347	2.78	0.04	 V 	4-Hydroxy-3-methylacetophenone		0.04	0.08	74	876-2-8
99	30.559	30.453	30.607	TIC	59843	10829	5.53	0.13	   			0.13	0.14	0	0-0-0
100	30.686	30.607	30.773	TIC	140443	33284	4.22	0.30	 V 	Furan, 2-(2-furanylmethyl)-5-methyl-		0.30	0.44	72	13678-51-8
101	30.859	30.773	30.907	TIC	116591	23551	4.95	0.25	 V 			0.25	0.31	0	0-0-0
102	30.941	30.907	30.987	TIC	80763	20344	3.97	0.17	 V 	1,4,5,7-Tetramethyl-furo[3,4-d]pyridazine		0.17	0.27	73	0-0-0
103	31.099	30.987	31.187	TIC	582075	129927	4.48	1.25	 V 	Furan, 2,2'-methylenebis[5-methyl-		1.25	1.72	81	13679-43-1
104	31.240	31.187	31.293	TIC	250734	62050	4.04	0.54	 V 	1-Naphthalenol, 4-methoxy-		0.54	0.82	87	84-85-5
105	31.333	31.293	31.433	TIC	185879	38249	4.86	0.40	 V 	Furan, 2-(2-furanylmethyl)-5-methyl-		0.40	0.51	83	13678-51-8
106	31.513	31.433	31.533	TIC	55077	7705	7.15	0.12	 V 			0.12	0.10	0	0-0-0
107	31.700	31.533	31.773	TIC	153922	16526	9.31	0.33	 V 			0.33	0.22	0	0-0-0
108	31.845	31.773	31.933	TIC	264680	48439	5.46	0.57	 V 	Indene-1,7(4H)-dione, 3a,7a-dihydro-5-methyl-		0.57	0.64	74	21149-14-4
109	31.995	31.933	32.033	TIC	50073	13595	3.68	0.11	 V 			0.11	0.18	0	0-0-0
110	32.091	32.033	32.173	TIC	160018	46204	3.46	0.34	 V 	Bicyclo[2.2.2]oct-5-ene, 2-methoxymethylene-		0.34	0.61	82	0-0-0
111	32.413	32.353	32.460	TIC	37755	10266	3.68	0.08	   	4-n-Propylcoumarin		0.08	0.14	73	126826-39-9
112	32.562	32.460	32.673	TIC	230885	39604	5.83	0.49	 V 	Benzofuran-2,3-dione, 4,7-dimethyl-2,3-dihydro-		0.49	0.52	72	31297-30-0
113	32.738	32.673	32.800	TIC	81381	19543	4.16	0.17	 V 			0.17	0.26	0	0-0-0
114	32.897	32.800	32.953	TIC	130166	28228	4.61	0.28	 V 	4-Hydroxy-1-indanone		0.28	0.37	83	40731-98-4
115	32.982	32.953	33.080	TIC	53512	14620	3.66	0.11	 V 			0.11	0.19	0	0-0-0
116	33.320	33.267	33.373	TIC	37652	9413	4.00	0.08	   			0.08	0.12	0	0-0-0
118	33.630	33.580	33.700	TIC	65124	20517	3.17	0.14	   	2-Furancarboxaldehyde, 5-[(5-methyl-2-furanyl)methyl]-		0.14	0.27	75	34995-74-9
119	34.017	33.933	34.133	TIC	465889	114301	4.08	1.00	   	2-(1-Hydroxycycloheptyl)-furan		1.00	1.51	73	115754-89-7
120	34.198	34.133	34.307	TIC	85109	13987	6.08	0.18	 V 			0.18	0.19	0	0-0-0
121	34.422	34.307	34.507	TIC	129831	18072	7.18	0.28	 V 			0.28	0.24	0	0-0-0
122	34.657	34.560	34.727	TIC	127817	29001	4.41	0.27	   	1,4,5,7-Tetramethyl-furo[3,4-d]pyridazine		0.27	0.38	77	0-0-0
123	34.786	34.747	34.833	TIC	19530	7110	2.75	0.04	   			0.04	0.09	0	0-0-0
124	35.061	34.973	35.140	TIC	902162	253908	3.55	1.93	   	2H-1,4-Benzoxazin-3(4H)-one, 6-amino-7-methyl-		1.93	3.36	74	0-0-0
125	35.167	35.140	35.240	TIC	50855	9176	5.54	0.11	 V 	ortho-Hydroxypropiophenone		0.11	0.12	70	610-99-1
126	35.285	35.240	35.373	TIC	100134	19506	5.13	0.21	 V 	Benzaldehyde, 2-hydroxy-3-(2-propenyl)-		0.21	0.26	71	24019-66-7
127	35.427	35.373	35.473	TIC	24134	7082	3.41	0.05	 V 			0.05	0.09	0	0-0-0
128	35.537	35.507	35.560	TIC	6829	4134	1.65	0.01	   			0.01	0.05	0	0-0-0
129	35.627	35.560	35.660	TIC	58615	17187	3.41	0.13	 V 			0.13	0.23	0	0-0-0
130	35.713	35.660	35.793	TIC	89772	17267	5.20	0.19	 V 			0.19	0.23	0	0-0-0
131	35.863	35.793	35.900	TIC	63972	15015	4.26	0.14	 V 			0.14	0.20	0	0-0-0
132	35.927	35.900	35.947	TIC	14905	6740	2.21	0.03	 V 			0.03	0.09	0	0-0-0
133	36.039	35.947	36.080	TIC	167307	36924	4.53	0.36	 V 			0.36	0.49	0	0-0-0
134	36.113	36.080	36.167	TIC	73452	20239	3.63	0.16	 V 	3-[3,4-methylenedioxyphenyl]-3-buten-2-one		0.16	0.27	73	0-0-0
135	36.287	36.167	36.347	TIC	117923	13077	9.02	0.25	 V 			0.25	0.17	0	0-0-0
136	36.417	36.347	36.500	TIC	400139	100084	4.00	0.86	 V 	Pyrazol-5(4H)-one, 3-(4-methoxyphenyl)-		0.86	1.33	79	1578-89-8
137	36.601	36.500	36.720	TIC	788328	200481	3.93	1.69	   	2H-1-benzopyran-2-one, 3,4-dihydro-6-hydroxy-5,7-dimethyl-		1.69	2.65	79	0-0-0
138	36.774	36.720	36.853	TIC	60949	14931	4.08	0.13	 V 			0.13	0.20	0	0-0-0
139	36.999	36.887	37.067	TIC	62379	13745	4.54	0.13	   			0.13	0.18	0	0-0-0
140	37.340	37.267	37.360	TIC	51156	17072	3.00	0.11	   			0.11	0.23	0	0-0-0
141	37.429	37.360	37.527	TIC	547365	136211	4.02	1.17	 V 	1,4-Dimethyl-4,5,7,8-tetrahydroimidazo-[4,5-E]-1,4-diazepin-5,8(6H)-dione		1.17	1.80	74	130063-15-9
142	37.553	37.527	37.580	TIC	8797	3733	2.36	0.02	 V 			0.02	0.05	0	0-0-0
143	37.658	37.580	37.727	TIC	534975	142360	3.76	1.15	 V 	Acetic acid, 3-cyclohex-1-enyl-1-methylprop-2-ynyl ester		1.15	1.89	72	162518-99-2
144	37.770	37.727	37.880	TIC	145521	34282	4.24	0.31	 V 			0.31	0.45	0	0-0-0
145	37.920	37.880	37.993	TIC	17540	4924	3.56	0.04	 V 			0.04	0.07	0	0-0-0
146	38.090	37.993	38.167	TIC	131655	19621	6.71	0.28	   	Pentacyclo[8.4.0.0(3,7).0(4,14).0(6,11)]tetradecane		0.28	0.26	72	0-0-0
147	38.240	38.167	38.293	TIC	44003	11081	3.97	0.09	 V 			0.09	0.15	0	0-0-0
148	38.998	38.927	39.053	TIC	78004	18077	4.32	0.17	   			0.17	0.24	0	0-0-0
149	39.087	39.053	39.147	TIC	31015	9250	3.35	0.07	 V 			0.07	0.12	0	0-0-0
150	39.513	39.460	39.567	TIC	48248	15214	3.17	0.10	   			0.10	0.20	0	0-0-0
151	39.769	39.653	39.827	TIC	49953	9838	5.08	0.11	   			0.11	0.13	0	0-0-0
152	40.399	40.333	40.513	TIC	360328	98865	3.64	0.77	   	n-Hexadecanoic acid		0.77	1.31	92	57-10-3
153	40.755	40.673	40.820	TIC	177374	44081	4.02	0.38	   			0.38	0.58	0	0-0-0
154	40.860	40.820	40.920	TIC	41218	9907	4.16	0.09	 V 			0.09	0.13	0	0-0-0
155	40.973	40.920	41.000	TIC	15330	3819	4.01	0.03	 V 			0.03	0.05	0	0-0-0
156	41.860	41.787	41.920	TIC	59551	10788	5.52	0.13	   			0.13	0.14	0	0-0-0
157	41.960	41.920	42.020	TIC	69001	19462	3.55	0.15	 V 			0.15	0.26	0	0-0-0
158	42.283	42.227	42.433	TIC	62343	7795	8.00	0.13	   			0.13	0.10	0	0-0-0
159	42.648	42.560	42.687	TIC	36159	7256	4.98	0.08	   			0.08	0.10	0	0-0-0
160	42.794	42.687	42.840	TIC	63972	13466	4.75	0.14	 V 			0.14	0.18	0	0-0-0
161	42.853	42.840	42.873	TIC	11154	7109	1.57	0.02	 V 			0.02	0.09	0	0-0-0
162	42.915	42.873	42.973	TIC	52176	14732	3.54	0.11	 V 			0.11	0.20	0	0-0-0
163	43.300	43.273	43.493	TIC	35619	3829	9.30	0.08	   			0.08	0.05	0	0-0-0
164	43.541	43.493	43.667	TIC	66584	10638	6.26	0.14	 V 			0.14	0.14	0	0-0-0
165	43.857	43.800	43.920	TIC	46172	14078	3.28	0.10	   	2H-Pyran-2-one, tetrahydro-6-nonyl-		0.10	0.19	80	2721-22-4
166	44.315	44.260	44.407	TIC	237594	64030	3.71	0.51	   	Octadecanoic acid		0.51	0.85	90	57-11-4
167	44.433	44.407	44.460	TIC	10202	4955	2.06	0.02	 V 			0.02	0.07	0	0-0-0
168	46.401	46.340	46.433	TIC	43060	12141	3.55	0.09	   			0.09	0.16	0	0-0-0
169	46.447	46.433	46.473	TIC	6761	5084	1.33	0.01	 V 			0.01	0.07	0	0-0-0
170	47.333	47.313	47.493	TIC	23586	3771	6.25	0.05	   			0.05	0.05	0	0-0-0
171	47.530	47.493	47.593	TIC	23882	6323	3.78	0.05	 V 			0.05	0.08	0	0-0-0
172	47.906	47.847	47.973	TIC	32085	8981	3.57	0.07	   			0.07	0.12	0	0-0-0
173	48.327	48.313	48.493	TIC	4846	2715	1.78	0.01	   			0.01	0.04	0	0-0-0
174	49.560	49.527	49.753	TIC	46037	4149	11.10	0.10	   			0.10	0.05	0	0-0-0
175	49.767	49.753	49.820	TIC	25530	6009	4.25	0.05	 V 			0.05	0.08	0	0-0-0
176	49.853	49.820	49.927	TIC	67773	21196	3.20	0.15	 V 	Diethylene glycol dibenzoate		0.15	0.28	92	120-55-8
177	50.706	50.640	50.773	TIC	39516	9664	4.09	0.08	   			0.08	0.13	0	0-0-0
178	51.413	51.347	51.467	TIC	30233	8094	3.74	0.06	   			0.06	0.11	0	0-0-0
179	53.969	53.920	54.040	TIC	31750	9566	3.32	0.07	   	1,3-Benzenedicarboxylic acid, bis(2-ethylhexyl) ester		0.07	0.13	82	137-89-3
180	55.649	55.567	55.713	TIC	36899	8095	4.56	0.08	   			0.08	0.11	0	0-0-0

